"# Channel 1"
"# Trace 1"
Frequency, Formatted Data, Formatted Data
+1.00000000000E+007, -3.03259920573E+000, +0.00000000000E+000
+1.08062500000E+007, -3.03954025246E+000, +0.00000000000E+000
+1.16125000000E+007, -3.04665518271E+000, +0.00000000000E+000
+1.24187500000E+007, -3.05383466398E+000, +0.00000000000E+000
+1.32250000000E+007, -3.06103221488E+000, +0.00000000000E+000
+1.40312500000E+007, -3.06817202677E+000, +0.00000000000E+000
+1.48375000000E+007, -3.07524953000E+000, +0.00000000000E+000
+1.56437500000E+007, -3.08212843684E+000, +0.00000000000E+000
+1.64500000000E+007, -3.08891930726E+000, +0.00000000000E+000
+1.72562500000E+007, -3.09567100812E+000, +0.00000000000E+000
+1.80625000000E+007, -3.10236348886E+000, +0.00000000000E+000
+1.88687500000E+007, -3.10889302036E+000, +0.00000000000E+000
+1.96750000000E+007, -3.11530187678E+000, +0.00000000000E+000
+2.04812500000E+007, -3.12192542141E+000, +0.00000000000E+000
+2.12875000000E+007, -3.12847160873E+000, +0.00000000000E+000
+2.20937500000E+007, -3.13497338105E+000, +0.00000000000E+000
+2.29000000000E+007, -3.14138633259E+000, +0.00000000000E+000
+2.37062500000E+007, -3.14779691720E+000, +0.00000000000E+000
+2.45125000000E+007, -3.15408684457E+000, +0.00000000000E+000
+2.53187500000E+007, -3.16031333221E+000, +0.00000000000E+000
+2.61250000000E+007, -3.16647432461E+000, +0.00000000000E+000
+2.69312500000E+007, -3.17258652452E+000, +0.00000000000E+000
+2.77375000000E+007, -3.17856386035E+000, +0.00000000000E+000
+2.85437500000E+007, -3.18454316103E+000, +0.00000000000E+000
+2.93500000000E+007, -3.19040762646E+000, +0.00000000000E+000
+3.01562500000E+007, -3.19624944099E+000, +0.00000000000E+000
+3.09625000000E+007, -3.20204434617E+000, +0.00000000000E+000
+3.17687500000E+007, -3.20773675973E+000, +0.00000000000E+000
+3.25750000000E+007, -3.21336973980E+000, +0.00000000000E+000
+3.33812500000E+007, -3.21900636420E+000, +0.00000000000E+000
+3.41875000000E+007, -3.22456640838E+000, +0.00000000000E+000
+3.49937500000E+007, -3.22999844572E+000, +0.00000000000E+000
+3.58000000000E+007, -3.23543700866E+000, +0.00000000000E+000
+3.66062500000E+007, -3.24084063342E+000, +0.00000000000E+000
+3.74125000000E+007, -3.24618988106E+000, +0.00000000000E+000
+3.82187500000E+007, -3.25150465927E+000, +0.00000000000E+000
+3.90250000000E+007, -3.25679557324E+000, +0.00000000000E+000
+3.98312500000E+007, -3.26212146960E+000, +0.00000000000E+000
+4.06375000000E+007, -3.26737353951E+000, +0.00000000000E+000
+4.14437500000E+007, -3.27262728320E+000, +0.00000000000E+000
+4.22500000000E+007, -3.27786034034E+000, +0.00000000000E+000
+4.30562500000E+007, -3.28309695780E+000, +0.00000000000E+000
+4.38625000000E+007, -3.28821802459E+000, +0.00000000000E+000
+4.46687500000E+007, -3.29332556643E+000, +0.00000000000E+000
+4.54750000000E+007, -3.29846251014E+000, +0.00000000000E+000
+4.62812500000E+007, -3.30353897191E+000, +0.00000000000E+000
+4.70875000000E+007, -3.30860761075E+000, +0.00000000000E+000
+4.78937500000E+007, -3.31363920916E+000, +0.00000000000E+000
+4.87000000000E+007, -3.31864200974E+000, +0.00000000000E+000
+4.95062500000E+007, -3.32364749948E+000, +0.00000000000E+000
+5.03125000000E+007, -3.32857688395E+000, +0.00000000000E+000
+5.11187500000E+007, -3.33351233565E+000, +0.00000000000E+000
+5.19250000000E+007, -3.33841467358E+000, +0.00000000000E+000
+5.27312500000E+007, -3.34334470195E+000, +0.00000000000E+000
+5.35375000000E+007, -3.34817653580E+000, +0.00000000000E+000
+5.43437500000E+007, -3.35296105781E+000, +0.00000000000E+000
+5.51500000000E+007, -3.35775559223E+000, +0.00000000000E+000
+5.59562500000E+007, -3.36247736196E+000, +0.00000000000E+000
+5.67625000000E+007, -3.36714391389E+000, +0.00000000000E+000
+5.75687500000E+007, -3.37182894626E+000, +0.00000000000E+000
+5.83750000000E+007, -3.37645638378E+000, +0.00000000000E+000
+5.91812500000E+007, -3.38097605730E+000, +0.00000000000E+000
+5.99875000000E+007, -3.38547008415E+000, +0.00000000000E+000
+6.07937500000E+007, -3.38990477121E+000, +0.00000000000E+000
+6.16000000000E+007, -3.39430492021E+000, +0.00000000000E+000
+6.24062500000E+007, -3.39867553795E+000, +0.00000000000E+000
+6.32125000000E+007, -3.40299926544E+000, +0.00000000000E+000
+6.40187500000E+007, -3.40728444122E+000, +0.00000000000E+000
+6.48250000000E+007, -3.41157956760E+000, +0.00000000000E+000
+6.56312500000E+007, -3.41578796024E+000, +0.00000000000E+000
+6.64375000000E+007, -3.41997681098E+000, +0.00000000000E+000
+6.72437500000E+007, -3.42407133439E+000, +0.00000000000E+000
+6.80500000000E+007, -3.42820214801E+000, +0.00000000000E+000
+6.88562500000E+007, -3.43224545486E+000, +0.00000000000E+000
+6.96625000000E+007, -3.43622169998E+000, +0.00000000000E+000
+7.04687500000E+007, -3.44016309125E+000, +0.00000000000E+000
+7.12750000000E+007, -3.44404544893E+000, +0.00000000000E+000
+7.20812500000E+007, -3.44791743145E+000, +0.00000000000E+000
+7.28875000000E+007, -3.45171612140E+000, +0.00000000000E+000
+7.36937500000E+007, -3.45552653197E+000, +0.00000000000E+000
+7.45000000000E+007, -3.45929805564E+000, +0.00000000000E+000
+7.53062500000E+007, -3.46309008672E+000, +0.00000000000E+000
+7.61125000000E+007, -3.46683788199E+000, +0.00000000000E+000
+7.69187500000E+007, -3.47054109865E+000, +0.00000000000E+000
+7.77250000000E+007, -3.47422677476E+000, +0.00000000000E+000
+7.85312500000E+007, -3.47789244525E+000, +0.00000000000E+000
+7.93375000000E+007, -3.48159033874E+000, +0.00000000000E+000
+8.01437500000E+007, -3.48521896712E+000, +0.00000000000E+000
+8.09500000000E+007, -3.48883206470E+000, +0.00000000000E+000
+8.17562500000E+007, -3.49244426620E+000, +0.00000000000E+000
+8.25625000000E+007, -3.49601633957E+000, +0.00000000000E+000
+8.33687500000E+007, -3.49955896562E+000, +0.00000000000E+000
+8.41750000000E+007, -3.50314462920E+000, +0.00000000000E+000
+8.49812500000E+007, -3.50665986308E+000, +0.00000000000E+000
+8.57875000000E+007, -3.51021394047E+000, +0.00000000000E+000
+8.65937500000E+007, -3.51373661852E+000, +0.00000000000E+000
+8.74000000000E+007, -3.51728009133E+000, +0.00000000000E+000
+8.82062500000E+007, -3.52080986798E+000, +0.00000000000E+000
+8.90125000000E+007, -3.52439164593E+000, +0.00000000000E+000
+8.98187500000E+007, -3.52797953958E+000, +0.00000000000E+000
+9.06250000000E+007, -3.53159120422E+000, +0.00000000000E+000
+9.14312500000E+007, -3.53519880336E+000, +0.00000000000E+000
+9.22375000000E+007, -3.53888822865E+000, +0.00000000000E+000
+9.30437500000E+007, -3.54255996438E+000, +0.00000000000E+000
+9.38500000000E+007, -3.54625709159E+000, +0.00000000000E+000
+9.46562500000E+007, -3.55004941226E+000, +0.00000000000E+000
+9.54625000000E+007, -3.55386937403E+000, +0.00000000000E+000
+9.62687500000E+007, -3.55775160561E+000, +0.00000000000E+000
+9.70750000000E+007, -3.56164894113E+000, +0.00000000000E+000
+9.78812500000E+007, -3.56554306732E+000, +0.00000000000E+000
+9.86875000000E+007, -3.56951571030E+000, +0.00000000000E+000
+9.94937500000E+007, -3.57354808654E+000, +0.00000000000E+000
+1.00300000000E+008, -3.57763962513E+000, +0.00000000000E+000
+1.01106250000E+008, -3.58181619571E+000, +0.00000000000E+000
+1.01912500000E+008, -3.58604489447E+000, +0.00000000000E+000
+1.02718750000E+008, -3.59030811133E+000, +0.00000000000E+000
+1.03525000000E+008, -3.59469326525E+000, +0.00000000000E+000
+1.04331250000E+008, -3.59909294890E+000, +0.00000000000E+000
+1.05137500000E+008, -3.60357441725E+000, +0.00000000000E+000
+1.05943750000E+008, -3.60809857750E+000, +0.00000000000E+000
+1.06750000000E+008, -3.61268640368E+000, +0.00000000000E+000
+1.07556250000E+008, -3.61733348349E+000, +0.00000000000E+000
+1.08362500000E+008, -3.62203398184E+000, +0.00000000000E+000
+1.09168750000E+008, -3.62674475431E+000, +0.00000000000E+000
+1.09975000000E+008, -3.63155939439E+000, +0.00000000000E+000
+1.10781250000E+008, -3.63644447510E+000, +0.00000000000E+000
+1.11587500000E+008, -3.64135869597E+000, +0.00000000000E+000
+1.12393750000E+008, -3.64627488523E+000, +0.00000000000E+000
+1.13200000000E+008, -3.65128668991E+000, +0.00000000000E+000
+1.14006250000E+008, -3.65629658455E+000, +0.00000000000E+000
+1.14812500000E+008, -3.66130310217E+000, +0.00000000000E+000
+1.15618750000E+008, -3.66633049043E+000, +0.00000000000E+000
+1.16425000000E+008, -3.67138525035E+000, +0.00000000000E+000
+1.17231250000E+008, -3.67652262941E+000, +0.00000000000E+000
+1.18037500000E+008, -3.68171365656E+000, +0.00000000000E+000
+1.18843750000E+008, -3.68689904675E+000, +0.00000000000E+000
+1.19650000000E+008, -3.69210003319E+000, +0.00000000000E+000
+1.20456250000E+008, -3.69729097765E+000, +0.00000000000E+000
+1.21262500000E+008, -3.70250715480E+000, +0.00000000000E+000
+1.22068750000E+008, -3.70770212375E+000, +0.00000000000E+000
+1.22875000000E+008, -3.71293331704E+000, +0.00000000000E+000
+1.23681250000E+008, -3.71810543285E+000, +0.00000000000E+000
+1.24487500000E+008, -3.72329977724E+000, +0.00000000000E+000
+1.25293750000E+008, -3.72849681942E+000, +0.00000000000E+000
+1.26100000000E+008, -3.73370525951E+000, +0.00000000000E+000
+1.26906250000E+008, -3.73886268966E+000, +0.00000000000E+000
+1.27712500000E+008, -3.74405375362E+000, +0.00000000000E+000
+1.28518750000E+008, -3.74924601987E+000, +0.00000000000E+000
+1.29325000000E+008, -3.75439251456E+000, +0.00000000000E+000
+1.30131250000E+008, -3.75946155279E+000, +0.00000000000E+000
+1.30937500000E+008, -3.76452157498E+000, +0.00000000000E+000
+1.31743750000E+008, -3.76956790572E+000, +0.00000000000E+000
+1.32550000000E+008, -3.77456242482E+000, +0.00000000000E+000
+1.33356250000E+008, -3.77948352319E+000, +0.00000000000E+000
+1.34162500000E+008, -3.78438973092E+000, +0.00000000000E+000
+1.34968750000E+008, -3.78925834108E+000, +0.00000000000E+000
+1.35775000000E+008, -3.79406846199E+000, +0.00000000000E+000
+1.36581250000E+008, -3.79880141119E+000, +0.00000000000E+000
+1.37387500000E+008, -3.80344573363E+000, +0.00000000000E+000
+1.38193750000E+008, -3.80802143518E+000, +0.00000000000E+000
+1.39000000000E+008, -3.81251459969E+000, +0.00000000000E+000
+1.39806250000E+008, -3.81695392193E+000, +0.00000000000E+000
+1.40612500000E+008, -3.82132797502E+000, +0.00000000000E+000
+1.41418750000E+008, -3.82559443714E+000, +0.00000000000E+000
+1.42225000000E+008, -3.82976260578E+000, +0.00000000000E+000
+1.43031250000E+008, -3.83388720797E+000, +0.00000000000E+000
+1.43837500000E+008, -3.83791130812E+000, +0.00000000000E+000
+1.44643750000E+008, -3.84183566929E+000, +0.00000000000E+000
+1.45450000000E+008, -3.84569998381E+000, +0.00000000000E+000
+1.46256250000E+008, -3.84943885381E+000, +0.00000000000E+000
+1.47062500000E+008, -3.85311046143E+000, +0.00000000000E+000
+1.47868750000E+008, -3.85665120138E+000, +0.00000000000E+000
+1.48675000000E+008, -3.86005667291E+000, +0.00000000000E+000
+1.49481250000E+008, -3.86342761784E+000, +0.00000000000E+000
+1.50287500000E+008, -3.86672859162E+000, +0.00000000000E+000
+1.51093750000E+008, -3.86983327556E+000, +0.00000000000E+000
+1.51900000000E+008, -3.87294334487E+000, +0.00000000000E+000
+1.52706250000E+008, -3.87593316299E+000, +0.00000000000E+000
+1.53512500000E+008, -3.87882639476E+000, +0.00000000000E+000
+1.54318750000E+008, -3.88165869561E+000, +0.00000000000E+000
+1.55125000000E+008, -3.88440418930E+000, +0.00000000000E+000
+1.55931250000E+008, -3.88706815892E+000, +0.00000000000E+000
+1.56737500000E+008, -3.88965575944E+000, +0.00000000000E+000
+1.57543750000E+008, -3.89222543716E+000, +0.00000000000E+000
+1.58350000000E+008, -3.89476272721E+000, +0.00000000000E+000
+1.59156250000E+008, -3.89723798297E+000, +0.00000000000E+000
+1.59962500000E+008, -3.89968328779E+000, +0.00000000000E+000
+1.60768750000E+008, -3.90210069438E+000, +0.00000000000E+000
+1.61575000000E+008, -3.90449350444E+000, +0.00000000000E+000
+1.62381250000E+008, -3.90693298613E+000, +0.00000000000E+000
+1.63187500000E+008, -3.90936383710E+000, +0.00000000000E+000
+1.63993750000E+008, -3.91182167315E+000, +0.00000000000E+000
+1.64800000000E+008, -3.91428556488E+000, +0.00000000000E+000
+1.65606250000E+008, -3.91677042840E+000, +0.00000000000E+000
+1.66412500000E+008, -3.91929472287E+000, +0.00000000000E+000
+1.67218750000E+008, -3.92191339401E+000, +0.00000000000E+000
+1.68025000000E+008, -3.92455124114E+000, +0.00000000000E+000
+1.68831250000E+008, -3.92732043657E+000, +0.00000000000E+000
+1.69637500000E+008, -3.93013160236E+000, +0.00000000000E+000
+1.70443750000E+008, -3.93307164903E+000, +0.00000000000E+000
+1.71250000000E+008, -3.93614524668E+000, +0.00000000000E+000
+1.72056250000E+008, -3.93928116872E+000, +0.00000000000E+000
+1.72862500000E+008, -3.94252114726E+000, +0.00000000000E+000
+1.73668750000E+008, -3.94597219164E+000, +0.00000000000E+000
+1.74475000000E+008, -3.94950551894E+000, +0.00000000000E+000
+1.75281250000E+008, -3.95310699087E+000, +0.00000000000E+000
+1.76087500000E+008, -3.95682751064E+000, +0.00000000000E+000
+1.76893750000E+008, -3.96067146784E+000, +0.00000000000E+000
+1.77700000000E+008, -3.96460399100E+000, +0.00000000000E+000
+1.78506250000E+008, -3.96862131394E+000, +0.00000000000E+000
+1.79312500000E+008, -3.97274599846E+000, +0.00000000000E+000
+1.80118750000E+008, -3.97697095441E+000, +0.00000000000E+000
+1.80925000000E+008, -3.98125865263E+000, +0.00000000000E+000
+1.81731250000E+008, -3.98563585437E+000, +0.00000000000E+000
+1.82537500000E+008, -3.99007751342E+000, +0.00000000000E+000
+1.83343750000E+008, -3.99455221270E+000, +0.00000000000E+000
+1.84150000000E+008, -3.99905622957E+000, +0.00000000000E+000
+1.84956250000E+008, -4.00359671949E+000, +0.00000000000E+000
+1.85762500000E+008, -4.00822074207E+000, +0.00000000000E+000
+1.86568750000E+008, -4.01288378247E+000, +0.00000000000E+000
+1.87375000000E+008, -4.01756564900E+000, +0.00000000000E+000
+1.88181250000E+008, -4.02229756736E+000, +0.00000000000E+000
+1.88987500000E+008, -4.02700564381E+000, +0.00000000000E+000
+1.89793750000E+008, -4.03177865802E+000, +0.00000000000E+000
+1.90600000000E+008, -4.03651705661E+000, +0.00000000000E+000
+1.91406250000E+008, -4.04132128822E+000, +0.00000000000E+000
+1.92212500000E+008, -4.04613815159E+000, +0.00000000000E+000
+1.93018750000E+008, -4.05097105874E+000, +0.00000000000E+000
+1.93825000000E+008, -4.05579502093E+000, +0.00000000000E+000
+1.94631250000E+008, -4.06063772944E+000, +0.00000000000E+000
+1.95437500000E+008, -4.06560834037E+000, +0.00000000000E+000
+1.96243750000E+008, -4.07053703437E+000, +0.00000000000E+000
+1.97050000000E+008, -4.07549692187E+000, +0.00000000000E+000
+1.97856250000E+008, -4.08048007297E+000, +0.00000000000E+000
+1.98662500000E+008, -4.08552027073E+000, +0.00000000000E+000
+1.99468750000E+008, -4.09061219178E+000, +0.00000000000E+000
+2.00275000000E+008, -4.09571484220E+000, +0.00000000000E+000
+2.01081250000E+008, -4.10089560726E+000, +0.00000000000E+000
+2.01887500000E+008, -4.10603146468E+000, +0.00000000000E+000
+2.02693750000E+008, -4.11120283775E+000, +0.00000000000E+000
+2.03500000000E+008, -4.11642044114E+000, +0.00000000000E+000
+2.04306250000E+008, -4.12168672071E+000, +0.00000000000E+000
+2.05112500000E+008, -4.12701740749E+000, +0.00000000000E+000
+2.05918750000E+008, -4.13230567669E+000, +0.00000000000E+000
+2.06725000000E+008, -4.13763518459E+000, +0.00000000000E+000
+2.07531250000E+008, -4.14294951350E+000, +0.00000000000E+000
+2.08337500000E+008, -4.14830558613E+000, +0.00000000000E+000
+2.09143750000E+008, -4.15367445324E+000, +0.00000000000E+000
+2.09950000000E+008, -4.15904511410E+000, +0.00000000000E+000
+2.10756250000E+008, -4.16441442713E+000, +0.00000000000E+000
+2.11562500000E+008, -4.16976496485E+000, +0.00000000000E+000
+2.12368750000E+008, -4.17503680769E+000, +0.00000000000E+000
+2.13175000000E+008, -4.18035540664E+000, +0.00000000000E+000
+2.13981250000E+008, -4.18558500857E+000, +0.00000000000E+000
+2.14787500000E+008, -4.19075807284E+000, +0.00000000000E+000
+2.15593750000E+008, -4.19580600402E+000, +0.00000000000E+000
+2.16400000000E+008, -4.20091685885E+000, +0.00000000000E+000
+2.17206250000E+008, -4.20591722948E+000, +0.00000000000E+000
+2.18012500000E+008, -4.21084978746E+000, +0.00000000000E+000
+2.18818750000E+008, -4.21568995680E+000, +0.00000000000E+000
+2.19625000000E+008, -4.22045769011E+000, +0.00000000000E+000
+2.20431250000E+008, -4.22511301500E+000, +0.00000000000E+000
+2.21237500000E+008, -4.22970401821E+000, +0.00000000000E+000
+2.22043750000E+008, -4.23426592309E+000, +0.00000000000E+000
+2.22850000000E+008, -4.23867713486E+000, +0.00000000000E+000
+2.23656250000E+008, -4.24306407666E+000, +0.00000000000E+000
+2.24462500000E+008, -4.24736288047E+000, +0.00000000000E+000
+2.25268750000E+008, -4.25155357992E+000, +0.00000000000E+000
+2.26075000000E+008, -4.25564443937E+000, +0.00000000000E+000
+2.26881250000E+008, -4.25967692878E+000, +0.00000000000E+000
+2.27687500000E+008, -4.26361230998E+000, +0.00000000000E+000
+2.28493750000E+008, -4.26745020999E+000, +0.00000000000E+000
+2.29300000000E+008, -4.27116104584E+000, +0.00000000000E+000
+2.30106250000E+008, -4.27480745329E+000, +0.00000000000E+000
+2.30912500000E+008, -4.27835864911E+000, +0.00000000000E+000
+2.31718750000E+008, -4.28185376143E+000, +0.00000000000E+000
+2.32525000000E+008, -4.28531522382E+000, +0.00000000000E+000
+2.33331250000E+008, -4.28865629000E+000, +0.00000000000E+000
+2.34137500000E+008, -4.29192492312E+000, +0.00000000000E+000
+2.34943750000E+008, -4.29516165483E+000, +0.00000000000E+000
+2.35750000000E+008, -4.29837567776E+000, +0.00000000000E+000
+2.36556250000E+008, -4.30149377473E+000, +0.00000000000E+000
+2.37362500000E+008, -4.30459565631E+000, +0.00000000000E+000
+2.38168750000E+008, -4.30765579394E+000, +0.00000000000E+000
+2.38975000000E+008, -4.31068858623E+000, +0.00000000000E+000
+2.39781250000E+008, -4.31368399889E+000, +0.00000000000E+000
+2.40587500000E+008, -4.31666307556E+000, +0.00000000000E+000
+2.41393750000E+008, -4.31956102709E+000, +0.00000000000E+000
+2.42200000000E+008, -4.32239212131E+000, +0.00000000000E+000
+2.43006250000E+008, -4.32522213608E+000, +0.00000000000E+000
+2.43812500000E+008, -4.32790007909E+000, +0.00000000000E+000
+2.44618750000E+008, -4.33060930482E+000, +0.00000000000E+000
+2.45425000000E+008, -4.33330172802E+000, +0.00000000000E+000
+2.46231250000E+008, -4.33596300598E+000, +0.00000000000E+000
+2.47037500000E+008, -4.33857153947E+000, +0.00000000000E+000
+2.47843750000E+008, -4.34117630343E+000, +0.00000000000E+000
+2.48650000000E+008, -4.34379292913E+000, +0.00000000000E+000
+2.49456250000E+008, -4.34643335893E+000, +0.00000000000E+000
+2.50262500000E+008, -4.34907141630E+000, +0.00000000000E+000
+2.51068750000E+008, -4.35175171136E+000, +0.00000000000E+000
+2.51875000000E+008, -4.35438345178E+000, +0.00000000000E+000
+2.52681250000E+008, -4.35703541901E+000, +0.00000000000E+000
+2.53487500000E+008, -4.35972587978E+000, +0.00000000000E+000
+2.54293750000E+008, -4.36245518369E+000, +0.00000000000E+000
+2.55100000000E+008, -4.36522083654E+000, +0.00000000000E+000
+2.55906250000E+008, -4.36802487665E+000, +0.00000000000E+000
+2.56712500000E+008, -4.37086245204E+000, +0.00000000000E+000
+2.57518750000E+008, -4.37377526110E+000, +0.00000000000E+000
+2.58325000000E+008, -4.37671428098E+000, +0.00000000000E+000
+2.59131250000E+008, -4.37969384148E+000, +0.00000000000E+000
+2.59937500000E+008, -4.38270470630E+000, +0.00000000000E+000
+2.60743750000E+008, -4.38580740069E+000, +0.00000000000E+000
+2.61550000000E+008, -4.38900674817E+000, +0.00000000000E+000
+2.62356250000E+008, -4.39231028717E+000, +0.00000000000E+000
+2.63162500000E+008, -4.39575247943E+000, +0.00000000000E+000
+2.63968750000E+008, -4.39929619418E+000, +0.00000000000E+000
+2.64775000000E+008, -4.40288885617E+000, +0.00000000000E+000
+2.65581250000E+008, -4.40658338477E+000, +0.00000000000E+000
+2.66387500000E+008, -4.41036992013E+000, +0.00000000000E+000
+2.67193750000E+008, -4.41425731670E+000, +0.00000000000E+000
+2.68000000000E+008, -4.41824378301E+000, +0.00000000000E+000
